lateral contact position,vertical contact position,yaw angle,derailment coefficient
0.00973771,0.000720504,-0.00155995,0.0597169
0.00975935,0.000722359,-0.00153199,0.0591831
0.00978064,0.000724187,-0.00150357,0.058686
0.0098015,0.000725983,-0.00147468,0.0582114
0.0098219,0.000727742,-0.00144531,0.0577464
0.00984179,0.000729461,-0.00141546,0.0572796
0.00986114,0.000731137,-0.00138513,0.056804
0.00987993,0.000732768,-0.00135432,0.0563241
0.00989816,0.000734352,-0.00132301,0.0558427
0.00991583,0.00073589,-0.0012912,0.0553653
0.00993293,0.000737382,-0.0012589,0.0549014
0.00994947,0.000738827,-0.0012261,0.0544663
0.00996545,0.000740226,-0.00119469,0.054065
0.0099809,0.000741581,-0.00116773,0.0537035
0.00999594,0.000742902,-0.00114526,0.053408
0.0100106,0.000744194,-0.00112729,0.0531785
0.0100251,0.000745466,-0.00111383,0.0530299
0.0100393,0.000746722,-0.0011049,0.0529761
0.0100534,0.000747969,-0.00110051,0.0530001
0.0100675,0.000749211,-0.00110066,0.053117
0.0100815,0.000750456,-0.00110539,0.0532784
0.0100957,0.000751712,-0.00111468,0.0534554
0.01011,0.000752987,-0.00112857,0.0536171
0.0101247,0.000754292,-0.00114705,0.05374
0.0101398,0.000755642,-0.00117013,0.0537931
0.0101555,0.000757045,-0.00119784,0.053839
0.0101719,0.000758517,-0.00123019,0.0539145
0.0101895,0.000760088,-0.00126714,0.0540262
0.0102081,0.000761764,-0.00130867,0.0541782
0.010228,0.00076355,-0.00135481,0.0543976
0.0102491,0.000765457,-0.00140554,0.0546652
0.0102716,0.000767495,-0.00146085,0.054958
0.0102957,0.000769676,-0.00152075,0.0552446
0.0103213,0.000772008,-0.00158521,0.0554876
0.0103487,0.000774504,-0.00165378,0.0556649
0.0103778,0.00077717,-0.00172074,0.0557616
0.0104086,0.000779997,-0.00178433,0.0557991
0.0104409,0.000782978,-0.00184454,0.0558134
0.0104753,0.000786153,-0.00190134,0.0558099
0.0105113,0.000789496,-0.00195474,0.0558082
0.0105489,0.000793004,-0.00200472,0.0558134
0.0105882,0.000796679,-0.0020513,0.0557957
0.0106289,0.000800507,-0.00209445,0.0557791
0.010671,0.000804479,-0.00213419,0.0557687
0.0107143,0.000808591,-0.0021705,0.055738
0.0107589,0.000812836,-0.00220339,0.0556742
0.0108045,0.000817204,-0.00223287,0.0555787
0.0108511,0.000821687,-0.00225892,0.0554511
0.0108986,0.000826279,-0.00228156,0.0552953
0.0109469,0.000830972,-0.00230078,0.0551229
0.0109959,0.000835761,-0.0023166,0.0549452
0.0110455,0.000840636,-0.00232901,0.0547755
0.0110957,0.000845589,-0.00233803,0.0546251
0.0111464,0.000850612,-0.00234364,0.0545025
0.0111974,0.000855695,-0.00234587,0.054418
0.0112486,0.00086083,-0.00234472,0.0543832
0.0112999,0.000866002,-0.00234019,0.0544044
0.0113512,0.000871194,-0.00233366,0.0544551
0.0114025,0.000876415,-0.00232809,0.0545572
0.0114536,0.000881648,-0.00232358,0.0546915
0.0115048,0.000886914,-0.00232013,0.054836
0.0115561,0.000892211,-0.00231774,0.0550219
0.0116074,0.000897545,-0.00231642,0.0552531
0.0116589,0.000902921,-0.00231617,0.0555452
0.0117106,0.00090834,-0.00231699,0.0558624
0.0117626,0.000913825,-0.00231887,0.0561955
0.0118149,0.000919369,-0.00232182,0.0566388
0.0118675,0.000924974,-0.00232585,0.057124
0.0119205,0.000930644,-0.00233097,0.0576697
0.0119738,0.000936375,-0.00233718,0.0582716
0.0120274,0.000942175,-0.00234448,0.058901
0.0120815,0.000948056,-0.00235286,0.0595515
0.0121362,0.000954032,-0.00236232,0.06022
0.0121915,0.000960104,-0.00237287,0.0609117
0.0122475,0.000966276,-0.00238451,0.061619
0.012304,0.000972552,-0.00239723,0.062317
0.0123613,0.000978938,-0.00241105,0.0630108
0.0124193,0.000985443,-0.00242594,0.0637022
0.0124782,0.000992074,-0.00244192,0.06438
0.0125379,0.000998838,-0.00245894,0.0650464
0.0125985,0.00100574,-0.00247579,0.0656817
0.0126599,0.00101278,-0.0024919,0.0662903
0.0127223,0.00101997,-0.00250729,0.0668528
0.0127858,0.00102732,-0.00252192,0.0673985
0.0128503,0.00103483,-0.00253581,0.0679074
0.0129159,0.00104252,-0.00254894,0.0683543
0.0129826,0.00105037,-0.00256131,0.0687453
0.0130504,0.0010584,-0.00257291,0.0690739
0.0131192,0.0010666,-0.00258374,0.0693351
0.0131891,0.00107498,-0.00259378,0.0694864
0.0132601,0.00108355,-0.00260304,0.0695673
0.0133322,0.0010923,-0.00261151,0.0695636
0.0134055,0.00110125,-0.00261917,0.0694569
0.01348,0.0011104,-0.00262603,0.0692418
0.0135557,0.00111976,-0.00263206,0.0689164
0.0136328,0.00112935,-0.00263729,0.0685121
0.0137112,0.00113916,-0.0026417,0.0680315
0.0137909,0.00114921,-0.00264531,0.0675122
0.013872,0.0011595,-0.00264812,0.0668453
0.0139546,0.00117003,-0.00265011,0.0660635
0.0140385,0.00118082,-0.00265129,0.0651583
0.014124,0.00119188,-0.00265167,0.0641223
0.014211,0.00120321,-0.00265121,0.0629833
0.0142995,0.00121482,-0.00264987,0.0617204
0.0143894,0.0012267,-0.00264764,0.0603615
0.0144809,0.00123887,-0.00264451,0.0588982
0.0145739,0.00125132,-0.00264049,0.0573287
0.0146684,0.00126407,-0.00263558,0.0556781
0.0147644,0.00127712,-0.00262976,0.0539629
0.014862,0.00129048,-0.00262304,0.0521403
0.0149609,0.00130412,-0.00261541,0.0502069
0.015061,0.00131804,-0.00260686,0.0481471
0.0151621,0.00133218,-0.00259739,0.0459674
0.0152639,0.00134653,-0.00258699,0.0437114
0.0153661,0.00136106,-0.00257566,0.0414082
0.0154687,0.00137573,-0.00256338,0.039063
0.0155713,0.00139053,-0.00255015,0.0367119
0.0156738,0.00140542,-0.00253596,0.034366
0.0157761,0.00142038,-0.00252081,0.0320536
0.0158778,0.00143536,-0.00250468,0.0298008
0.0159787,0.00145035,-0.00248758,0.0276253
0.0160788,0.00146529,-0.0024695,0.0255507
0.0161777,0.00148017,-0.00245044,0.0233841
0.0162752,0.00149495,-0.0024304,0.0215593
0.0163714,0.00150961,-0.00240936,0.0198977
0.016466,0.00152413,-0.00238661,0.018413
0.0165587,0.00153845,-0.00236169,0.0171161
0.0166496,0.00155257,-0.00233458,0.0160197
0.0167383,0.00156643,-0.00230528,0.0151457
0.0168246,0.00158001,-0.00227379,0.0144903
0.0169085,0.00159327,-0.00224011,0.014063
0.0169897,0.00160617,-0.00220425,0.0138789
0.017068,0.00161869,-0.00216622,0.013883
0.0171435,0.00163081,-0.00212603,0.0140472
0.017216,0.00164252,-0.0020837,0.0143606
0.0172856,0.00165379,-0.00203922,0.014882
0.0173518,0.00166457,-0.00199259,0.0155883
0.0174146,0.00167484,-0.00194381,0.0164523
0.017474,0.00168459,-0.00189289,0.0174905
0.0175298,0.00169378,-0.00183985,0.0186578
0.0175819,0.00170239,-0.00178464,0.0201268
0.0176297,0.00171031,-0.00172735,0.0215881
0.0176737,0.00171762,-0.00166798,0.0230969
0.0177138,0.00172432,-0.00160652,0.0246697
0.0177501,0.00173038,-0.00154301,0.0261505
0.0177829,0.00173587,-0.00147745,0.0277157
0.0178118,0.00174072,-0.00140984,0.0293654
0.0178367,0.0017449,-0.00134136,0.0310098
0.0178577,0.00174844,-0.00127702,0.0326484
0.0178751,0.00175137,-0.00121742,0.0342794
0.0178891,0.00175374,-0.00116257,0.0358324
0.0179001,0.00175559,-0.00111248,0.0373715
0.0179083,0.00175697,-0.00106717,0.0388403
0.0179139,0.00175792,-0.00102668,0.0402473
0.0179171,0.00175847,-0.000991025,0.0415566
0.0179182,0.00175864,-0.00096019,0.0427401
0.0179172,0.00175848,-0.000934162,0.043818
0.0179153,0.00175816,-0.00091295,0.0448017
0.0179124,0.00175766,-0.000896569,0.0457462
0.0179086,0.00175702,-0.000885038,0.0465765
0.0179042,0.00175628,-0.000878364,0.0472961
0.0178995,0.00175549,-0.000876554,0.0479012
0.0178948,0.00175469,-0.000879629,0.0483773
0.0178902,0.00175392,-0.000887562,0.0487367
0.0178862,0.00175325,-0.00090035,0.0489931
0.0178831,0.00175272,-0.000918004,0.0491279
0.0178811,0.00175238,-0.000940524,0.0491405
0.0178804,0.00175227,-0.000967909,0.0490287
0.0178814,0.00175244,-0.00100015,0.0488033
0.0178844,0.00175294,-0.00103724,0.0484607
0.0178894,0.00175379,-0.00107644,0.0480092
0.0178967,0.00175502,-0.00111565,0.0474414
0.0179062,0.00175662,-0.00115488,0.0467108
0.017918,0.00175861,-0.0011941,0.045925
0.017932,0.00176098,-0.00123333,0.0450399
0.0179483,0.00176375,-0.00127255,0.0440526
0.017967,0.00176691,-0.00131175,0.042976
0.017988,0.00177047,-0.00135093,0.0418268
0.0180113,0.00177443,-0.00139009,0.0406115
0.0180369,0.00177878,-0.00142921,0.0393379
0.0180647,0.00178353,-0.00146829,0.0380142
0.0180948,0.00178867,-0.00150731,0.0366473
0.0181272,0.0017942,-0.00154628,0.0352493
0.0181617,0.00180012,-0.00158518,0.033832
0.0181983,0.00180641,-0.001624,0.032406
0.0182369,0.00181306,-0.00166274,0.0309825
0.0182776,0.00182008,-0.00170137,0.029585
0.0183202,0.00182744,-0.0017399,0.0282164
0.0183645,0.00183513,-0.00177831,0.0268829
0.0184105,0.00184314,-0.0018166,0.0255875
0.0184582,0.00185146,-0.00185475,0.0243464
0.0185074,0.00186007,-0.00189276,0.0231663
0.0185579,0.00186892,-0.00193059,0.0220631
0.0186098,0.00187807,-0.00196815,0.0210142
0.0186631,0.00188747,-0.00200543,0.0200448
0.0187176,0.00189713,-0.0020424,0.0191729
0.0187732,0.00190701,-0.00207906,0.0182462
0.0188297,0.00191708,-0.00211539,0.0176093
0.018887,0.00192733,-0.00215139,0.0170541
0.0189451,0.00193775,-0.00218703,0.0166105
0.0190037,0.00194831,-0.00222229,0.0163101
0.0190629,0.00195901,-0.00225717,0.0161113
0.0191226,0.00196983,-0.00229166,0.0160281
0.0191827,0.00198076,-0.00232575,0.0160629
0.0192429,0.00199175,-0.00235941,0.0162422
0.019303,0.00200278,-0.00239264,0.0165433
0.0193636,0.00201392,-0.00242546,0.016955
0.0194249,0.00202523,-0.00245787,0.0174409
0.019486,0.00203654,-0.00248987,0.018032
0.019547,0.00204788,-0.00252143,0.0187397
0.019608,0.00205924,-0.00255255,0.019566
0.0196688,0.00207061,-0.00258322,0.0204927
0.0197292,0.00208195,-0.00261344,0.0215164
0.0197895,0.00209331,-0.00264321,0.0226359
0.0198496,0.00210468,-0.00267252,0.0238618
0.0199095,0.00211603,-0.00269955,0.0252131
0.0199687,0.00212729,-0.00272242,0.0266484
0.0200272,0.00213845,-0.00274114,0.0281058
0.0200848,0.00214949,-0.00275573,0.0296477
0.0201415,0.00216037,-0.00276617,0.0312681
0.020197,0.00217107,-0.00277248,0.0329582
0.0202513,0.00218156,-0.00277466,0.0346991
0.0203036,0.00219169,-0.0027727,0.0363792
0.0203542,0.00220154,-0.00276662,0.0381995
0.0204031,0.00221106,-0.00275642,0.0400498
0.0204502,0.00222026,-0.00274215,0.0419368
0.0204956,0.00222916,-0.00272381,0.0438371
0.0205402,0.00223793,-0.00270143,0.0457466
0.0205826,0.00224627,-0.00267502,0.0476283
0.0206229,0.00225422,-0.00264457,0.0494352
0.0206609,0.00226172,-0.0026101,0.0511883
0.0206966,0.00226879,-0.00257162,0.0528962
0.0207301,0.00227544,-0.00252914,0.0545388
0.0207613,0.00228164,-0.00248268,0.0561099
0.0207901,0.00228737,-0.00243226,0.0575961
0.0208163,0.0022926,-0.00237788,0.0590151
0.02084,0.00229733,-0.00231957,0.0603582
0.020861,0.00230154,-0.00225788,0.0616214
0.0208795,0.00230523,-0.00219696,0.0628091
0.0208952,0.00230837,-0.00213766,0.0638528
0.0209085,0.00231105,-0.00208002,0.064749
0.0209196,0.00231326,-0.00202405,0.0655335
0.0209285,0.00231505,-0.00196975,0.0662227
0.0209352,0.00231641,-0.00191716,0.0667861
0.0209398,0.00231733,-0.00186627,0.0671914
0.0209424,0.00231785,-0.0018171,0.067401
0.0209432,0.00231802,-0.00176966,0.0674994
0.0209424,0.00231785,-0.00172395,0.067503
0.02094,0.00231737,-0.00167998,0.0673489
0.0209362,0.00231659,-0.00163776,0.0670377
0.0209311,0.00231557,-0.00159728,0.0666195
0.0209245,0.00231424,-0.00155855,0.0660539
0.0209181,0.00231297,-0.00152163,0.0654079
0.0209095,0.00231125,-0.00148643,0.06462
0.0209033,0.00231001,-0.00145306,0.0637064
0.020893,0.00230794,-0.00142136,0.0627327
0.0208825,0.00230583,-0.00139137,0.0616488
0.0208715,0.00230362,-0.00136309,0.0605018
0.0208576,0.00230084,-0.00133646,0.0593089
0.0208453,0.0022984,-0.0013115,0.0579722
0.0208317,0.00229567,-0.00128909,0.0565338
0.0208187,0.00229308,-0.00127031,0.0551431
0.0208065,0.00229064,-0.00125515,0.0537257
0.0207945,0.00228825,-0.00124359,0.0523203
0.0207832,0.002286,-0.0012356,0.050886
0.0207727,0.00228392,-0.00123118,0.0494477
0.0207627,0.00228192,-0.0012303,0.048024
0.020754,0.0022802,-0.00123296,0.0465745
0.0207462,0.00227864,-0.00123912,0.0451531
0.0207401,0.00227742,-0.0012488,0.0437685
0.0207352,0.00227645,-0.00126196,0.0424314
0.0207318,0.00227577,-0.00127859,0.041127
0.0207299,0.00227539,-0.00129869,0.0398795
0.0207298,0.00227538,-0.00132225,0.0387261
0.0207316,0.00227574,-0.00134924,0.037692
0.020735,0.00227642,-0.00137966,0.0368046
0.02074,0.00227741,-0.00141352,0.0360985
0.0207466,0.00227871,-0.00145082,0.0355417
0.0207549,0.00228038,-0.00149157,0.0351721
0.0207651,0.0022824,-0.00153575,0.0350074
0.020777,0.00228478,-0.00158338,0.0350278
0.0207912,0.00228761,-0.00163446,0.035238
0.0208069,0.00229072,-0.00168841,0.0356407
0.0208242,0.00229417,-0.00174132,0.0362411
0.0208429,0.00229791,-0.00179243,0.0369828
0.020863,0.00230194,-0.00184176,0.0378689
0.0208841,0.00230616,-0.00188933,0.0388174
0.0209063,0.00231061,-0.00193515,0.0398945
0.0209295,0.00231526,-0.00197923,0.0410599
0.0209538,0.00232014,-0.00202157,0.0423449
0.0209787,0.00232514,-0.00206219,0.0436552
0.0210041,0.00233026,-0.00210111,0.0450194
0.02103,0.00233547,-0.00213833,0.0464409
0.0210561,0.00234076,-0.00217387,0.0478845
0.0210826,0.00234611,-0.00220774,0.0493589
0.0211092,0.0023515,-0.00223995,0.050837
0.021136,0.00235692,-0.00227051,0.0523076
0.0211627,0.00236236,-0.00229942,0.0537717
0.0211893,0.00236776,-0.0023267,0.0551643
0.0212155,0.0023731,-0.00235242,0.0564266
0.0212418,0.00237845,-0.00237649,0.0575947
0.021268,0.00238381,-0.00239892,0.0586292
0.0212944,0.0023892,-0.00241969,0.0596476
0.0213205,0.00239454,-0.00243882,0.060558
0.0213463,0.00239983,-0.00245632,0.0613665
0.0213718,0.00240507,-0.00247233,0.0620907
0.0213966,0.00241018,-0.00248708,0.0626784
0.0214215,0.00241529,-0.00250051,0.0632126
0.0214461,0.00242037,-0.00251261,0.0636019
0.0214706,0.00242543,-0.0025234,0.0638586
0.0214951,0.00243048,-0.00253283,0.0640255
0.0215193,0.0024355,-0.00254094,0.0640769
0.0215434,0.00244048,-0.0025477,0.0640228
0.0215672,0.00244542,-0.00255313,0.0638638
0.0215909,0.00245033,-0.00255722,0.0636036
0.0216142,0.00245519,-0.00255995,0.063252
0.0216374,0.00246,-0.00256134,0.062838
0.0216602,0.00246476,-0.00256136,0.0623685
0.0216827,0.00246945,-0.00256001,0.0618501
0.0217048,0.00247407,-0.0025573,0.0612944
0.0217265,0.0024786,-0.00255321,0.0607165
0.0217477,0.00248305,-0.00254774,0.0601299
0.0217685,0.00248741,-0.00254087,0.0595464
0.0217888,0.00249167,-0.00253261,0.0589761
0.0218086,0.00249581,-0.00252294,0.0584292
0.0218277,0.00249984,-0.00251185,0.0579148
0.0218463,0.00250374,-0.00249934,0.057436
0.0218641,0.0025075,-0.00248544,0.0570022
0.0218813,0.00251111,-0.00247063,0.0566282
0.0218976,0.00251456,-0.00245506,0.0563224
0.0219132,0.00251785,-0.0024387,0.0560964
0.0219279,0.00252096,-0.00242154,0.055957
0.0219419,0.00252391,-0.00240356,0.0559099
0.0219549,0.00252666,-0.00238474,0.0559645
0.021967,0.00252923,-0.00236507,0.056117
0.0219782,0.0025316,-0.00234453,0.0563643
0.0219885,0.00253379,-0.0023231,0.0567011
0.0219979,0.00253578,-0.00230077,0.0571205
0.0220064,0.00253758,-0.00227751,0.057616
0.0220137,0.00253912,-0.0022533,0.0581616
0.0220201,0.0025405,-0.0022281,0.0587813
0.0220257,0.00254167,-0.00220194,0.0594557
0.0220301,0.00254261,-0.00217478,0.0601652
0.0220342,0.00254349,-0.00214664,0.0609077
0.0220368,0.00254403,-0.00211749,0.0616987
0.0220394,0.00254459,-0.00208739,0.0624804
0.022041,0.00254492,-0.00205632,0.0632769
0.0220415,0.00254503,-0.00202427,0.0640439
0.0220411,0.00254494,-0.00199122,0.0647811
0.0220398,0.00254468,-0.00195718,0.0654739
0.0220378,0.00254424,-0.00192283,0.0661268
0.022035,0.00254365,-0.00188953,0.0667203
0.0220313,0.00254286,-0.00185732,0.0672425
0.0220269,0.00254192,-0.00182622,0.0676978
0.0220218,0.00254085,-0.00179623,0.0680759
0.0220162,0.00253966,-0.00176737,0.0683831
0.02201,0.00253835,-0.00173965,0.0686149
0.0220034,0.00253694,-0.00171307,0.0687613
0.0219965,0.00253547,-0.00168763,0.0687746
0.0219892,0.00253392,-0.00166339,0.0686856
0.0219816,0.00253232,-0.00164033,0.0684934
0.021974,0.00253071,-0.00161847,0.0681854
0.0219662,0.00252905,-0.00159781,0.0677642
0.0219587,0.00252747,-0.00157836,0.067235
0.0219516,0.00252596,-0.00156012,0.0665862
0.0219445,0.00252446,-0.00154311,0.065825
0.0219375,0.00252299,-0.00152734,0.0649306
0.0219313,0.00252167,-0.0015128,0.0638888
0.0219249,0.00252032,-0.00149951,0.0627471
0.0219198,0.00251925,-0.00148745,0.0614344
0.0219142,0.00251805,-0.00147665,0.0599432
0.0219096,0.00251708,-0.0014671,0.0583332
0.0219063,0.00251639,-0.0014586,0.0567126
0.0219041,0.00251594,-0.00144807,0.0549535
0.0219016,0.0025154,-0.00143447,0.0531214
0.0218998,0.00251501,-0.00141779,0.0511205
0.0218989,0.00251482,-0.00139803,0.0490909
0.0218989,0.00251482,-0.00137518,0.0470529
0.0218995,0.00251497,-0.00134925,0.0449856
0.0219008,0.00251523,-0.00132023,0.0428498
0.0219028,0.00251566,-0.00128813,0.0406681
0.0219052,0.00251616,-0.00125295,0.0384723
0.0219079,0.00251673,-0.00121469,0.0362591
0.0219109,0.00251737,-0.00117335,0.0339964
0.0219141,0.00251805,-0.00112896,0.0317367
0.0219174,0.00251873,-0.00108151,0.0295396
0.0219206,0.00251942,-0.00103103,0.027292
0.0219236,0.00252005,-0.000977521,0.0251266
0.0219265,0.00252065,-0.000920998,0.0230428
0.0219289,0.00252118,-0.000861475,0.0210424
0.0219309,0.0025216,-0.000798968,0.019135
0.0219323,0.00252189,-0.000733494,0.0173169
0.0219328,0.00252199,-0.00066507,0.015618
0.0219326,0.00252194,-0.000593704,0.0140456
0.0219307,0.00252154,-0.000519446,0.0125937
0.0219282,0.00252102,-0.000442598,0.0112772
0.0219239,0.00252011,-0.000363811,0.0101439
0.0219187,0.00251902,-0.000283087,0.0091414
0.0219116,0.00251752,-0.000200447,0.00830231
0.0219025,0.00251559,-0.000115915,0.0075596
0.0218913,0.00251323,-2.95E-05,0.00696161
0.021878,0.00251041,5.87E-05,0.00652527
0.0218624,0.00250713,0.000148852,0.00622017
0.0218443,0.00250332,0.000240778,0.00602493
0.0218236,0.00249896,0.000334515,0.00597028
0.0217998,0.00249396,0.000430027,0.00600948
0.0217733,0.00248842,0.000527313,0.00622098
0.0217425,0.00248195,0.000626313,0.0065524
0.0217088,0.0024749,0.000726988,0.00690831
0.0216721,0.00246725,0.00082942,0.00739858
0.0216313,0.00245873,0.000933551,0.00800612
0.0215864,0.00244941,0.00103938,0.00872724
0.0215377,0.0024393,0.00114692,0.00955975
0.0214845,0.0024283,0.00125613,0.0105036
0.0214267,0.00241638,0.00136704,0.0114704
0.0213643,0.00240353,0.00147968,0.0125759
0.0212963,0.0023896,0.001594,0.013739
0.0212227,0.00237456,0.00170982,0.0149166
0.0211432,0.00235839,0.00182297,0.0161852
0.0210574,0.00234102,0.00193166,0.0175615
0.020965,0.00232238,0.00203584,0.0190549
0.0208655,0.00230244,0.00213549,0.0207376
0.0207604,0.00228147,0.00223067,0.0229091
0.0206485,0.00225928,0.00232143,0.0253679
0.0205291,0.00223574,0.00240772,0.02806
0.0204021,0.00221087,0.00248954,0.0310728
0.0202672,0.00218465,0.0025669,0.0343964
0.0201244,0.00215709,0.0026398,0.0380343
0.0199734,0.00212819,0.00270825,0.041947
0.0198141,0.00209796,0.00277226,0.0460868
0.0196463,0.0020664,0.00283184,0.0504216
0.0194698,0.00203353,0.00288701,0.05493
0.0192844,0.00199936,0.00293778,0.0596142
0.01909,0.00196392,0.00298417,0.0644591
0.0188865,0.00192724,0.00302619,0.0694042
0.0186738,0.00188936,0.00306386,0.0745106
0.0184518,0.00185033,0.00309719,0.0797608
0.0182204,0.00181022,0.00312618,0.0851339
0.0179798,0.00176909,0.00315086,0.090596
0.0177301,0.00172703,0.00317122,0.0961196
0.0174713,0.00168414,0.00318758,0.101693
0.0172039,0.00164055,0.00320097,0.107269
0.016928,0.00159637,0.00321148,0.112793
0.0166442,0.00155174,0.0032191,0.118192
0.0163532,0.00150683,0.00322383,0.123637
0.0160562,0.0014619,0.00322568,0.128519
0.0157555,0.00141735,0.00322464,0.132727
0.0154546,0.00137371,0.00322069,0.136224
0.0151554,0.00133124,0.00321383,0.1394
0.0148592,0.0012901,0.00320405,0.14215
0.0145682,0.00125056,0.00319134,0.144193
0.0142839,0.00121277,0.00317568,0.145669
0.0140077,0.00117685,0.00315699,0.146769
0.0137398,0.00114276,0.00313534,0.147662
0.0134806,0.00111047,0.00311072,0.148304
0.0132299,0.0010799,0.00308321,0.148711
0.0129881,0.00105103,0.00305277,0.148988
0.0127553,0.00102378,0.00301939,0.149088
0.0125311,0.000998068,0.00298307,0.149008
0.012316,0.000973887,0.00294377,0.148951
0.0121095,0.000951108,0.00290151,0.148896
0.0119112,0.000929647,0.00285635,0.148768
0.0117205,0.00090938,0.00280831,0.148672
0.011538,0.00089034,0.00275912,0.148611
0.0113624,0.000872338,0.00271033,0.148684
0.0111944,0.000855395,0.0026619,0.148749
